PE UV       SUBTECH     SPECTRUM    ASCII       PEDS        4.00        
   -1
GNRs_ctab_170ul_0W_5mins.Sample.asc
13/12/09
17:14:56.00
13/12/09
17:14:56.00
Administrator

350.000000
1
Lambda 25
1
PerkinElmer UV WinLab 6.0.3.0730 / Lambda25 1.27

480
2
1
0
0
Both on
1
1
1
6x Cell Changer
0
0
0
0
 
 
0
0
0
0
0
 
 
 
0
 
0
326
0
 
0
 
 
 
0
0
0
 
0
 
 
 
0
 
 
0
0
0
0
0
 
 
 
 
0
0


#HDR
-1
-1
#GR
nm
A
1.0
0.0
1100.000000
-1.000000
751
8
0.649263
0.110428
#DATA
1100.000000	0.132161
1099.000000	0.132546
1098.000000	0.133960
1097.000000	0.134540
1096.000000	0.134881
1095.000000	0.135269
1094.000000	0.136271
1093.000000	0.137002
1092.000000	0.137731
1091.000000	0.138477
1090.000000	0.139452
1089.000000	0.140106
1088.000000	0.140777
1087.000000	0.141915
1086.000000	0.142465
1085.000000	0.143481
1084.000000	0.144088
1083.000000	0.144975
1082.000000	0.145890
1081.000000	0.146721
1080.000000	0.147917
1079.000000	0.148361
1078.000000	0.149372
1077.000000	0.150486
1076.000000	0.151064
1075.000000	0.152306
1074.000000	0.153382
1073.000000	0.154067
1072.000000	0.155526
1071.000000	0.156067
1070.000000	0.156671
1069.000000	0.157683
1068.000000	0.158876
1067.000000	0.159561
1066.000000	0.160885
1065.000000	0.161571
1064.000000	0.162433
1063.000000	0.163493
1062.000000	0.164337
1061.000000	0.164942
1060.000000	0.166155
1059.000000	0.166820
1058.000000	0.167868
1057.000000	0.168870
1056.000000	0.169718
1055.000000	0.170346
1054.000000	0.171747
1053.000000	0.172654
1052.000000	0.173453
1051.000000	0.174356
1050.000000	0.175341
1049.000000	0.176418
1048.000000	0.177263
1047.000000	0.178252
1046.000000	0.179650
1045.000000	0.180475
1044.000000	0.181349
1043.000000	0.182289
1042.000000	0.183482
1041.000000	0.184284
1040.000000	0.185360
1039.000000	0.186229
1038.000000	0.187507
1037.000000	0.188283
1036.000000	0.189389
1035.000000	0.190183
1034.000000	0.191153
1033.000000	0.191718
1032.000000	0.192640
1031.000000	0.193784
1030.000000	0.194614
1029.000000	0.195518
1028.000000	0.196207
1027.000000	0.197103
1026.000000	0.198065
1025.000000	0.198848
1024.000000	0.199840
1023.000000	0.200439
1022.000000	0.201307
1021.000000	0.202296
1020.000000	0.202992
1019.000000	0.203915
1018.000000	0.204747
1017.000000	0.205547
1016.000000	0.206326
1015.000000	0.207135
1014.000000	0.207801
1013.000000	0.208455
1012.000000	0.209287
1011.000000	0.209956
1010.000000	0.210867
1009.000000	0.211631
1008.000000	0.212257
1007.000000	0.212947
1006.000000	0.213357
1005.000000	0.214114
1004.000000	0.214554
1003.000000	0.215270
1002.000000	0.215848
1001.000000	0.216468
1000.000000	0.217034
999.000000	0.217675
998.000000	0.218124
997.000000	0.218817
996.000000	0.219268
995.000000	0.219528
994.000000	0.220117
993.000000	0.220719
992.000000	0.221203
991.000000	0.221626
990.000000	0.222238
989.000000	0.222773
988.000000	0.223241
987.000000	0.223745
986.000000	0.224199
985.000000	0.224797
984.000000	0.225251
983.000000	0.225785
982.000000	0.226255
981.000000	0.226729
980.000000	0.227448
979.000000	0.227759
978.000000	0.228437
977.000000	0.228634
976.000000	0.229351
975.000000	0.229739
974.000000	0.230431
973.000000	0.230847
972.000000	0.231405
971.000000	0.231618
970.000000	0.232452
969.000000	0.233081
968.000000	0.233632
967.000000	0.234389
966.000000	0.235009
965.000000	0.235819
964.000000	0.236766
963.000000	0.237199
962.000000	0.238046
961.000000	0.239022
960.000000	0.239636
959.000000	0.240812
958.000000	0.241818
957.000000	0.242663
956.000000	0.244037
955.000000	0.245205
954.000000	0.246352
953.000000	0.247585
952.000000	0.248738
951.000000	0.249769
950.000000	0.251230
949.000000	0.252502
948.000000	0.253929
947.000000	0.255253
946.000000	0.256857
945.000000	0.258070
944.000000	0.259614
943.000000	0.261284
942.000000	0.262891
941.000000	0.264562
940.000000	0.266387
939.000000	0.268196
938.000000	0.270180
937.000000	0.272113
936.000000	0.274223
935.000000	0.276218
934.000000	0.278599
933.000000	0.280572
932.000000	0.282933
931.000000	0.285378
930.000000	0.287828
929.000000	0.290234
928.000000	0.292915
927.000000	0.295781
926.000000	0.298589
925.000000	0.301607
924.000000	0.304619
923.000000	0.307567
922.000000	0.310713
921.000000	0.313727
920.000000	0.316873
919.000000	0.319972
918.000000	0.323148
917.000000	0.326355
916.000000	0.329685
915.000000	0.332936
914.000000	0.336318
913.000000	0.339621
912.000000	0.343283
911.000000	0.346809
910.000000	0.350422
909.000000	0.354229
908.000000	0.357909
907.000000	0.361684
906.000000	0.365738
905.000000	0.369641
904.000000	0.373898
903.000000	0.377804
902.000000	0.382020
901.000000	0.385900
900.000000	0.390078
899.000000	0.393991
898.000000	0.398526
897.000000	0.402849
896.000000	0.407568
895.000000	0.412014
894.000000	0.416491
893.000000	0.420761
892.000000	0.425162
891.000000	0.429351
890.000000	0.433559
889.000000	0.437830
888.000000	0.442097
887.000000	0.446334
886.000000	0.450642
885.000000	0.454926
884.000000	0.459200
883.000000	0.463310
882.000000	0.467619
881.000000	0.471999
880.000000	0.476437
879.000000	0.480791
878.000000	0.485179
877.000000	0.489706
876.000000	0.494374
875.000000	0.498723
874.000000	0.503310
873.000000	0.507589
872.000000	0.511988
871.000000	0.516413
870.000000	0.520759
869.000000	0.525071
868.000000	0.529530
867.000000	0.533872
866.000000	0.538554
865.000000	0.542653
864.000000	0.547053
863.000000	0.551141
862.000000	0.555405
861.000000	0.559340
860.000000	0.563429
859.000000	0.567275
858.000000	0.571323
857.000000	0.575049
856.000000	0.579230
855.000000	0.582968
854.000000	0.586683
853.000000	0.590158
852.000000	0.593963
851.000000	0.597413
850.000000	0.600854
849.000000	0.604358
848.000000	0.607539
847.000000	0.610943
846.000000	0.614143
845.000000	0.617203
844.000000	0.620064
843.000000	0.622781
842.000000	0.625441
841.000000	0.628281
840.000000	0.630808
839.000000	0.632988
838.000000	0.635424
837.000000	0.637469
836.000000	0.639460
835.000000	0.641023
834.000000	0.642658
833.000000	0.644272
832.000000	0.645349
831.000000	0.646395
830.000000	0.647274
829.000000	0.647971
828.000000	0.648552
827.000000	0.648836
826.000000	0.649263
825.000000	0.649105
824.000000	0.648884
823.000000	0.648629
822.000000	0.647996
821.000000	0.647206
820.000000	0.646312
819.000000	0.645055
818.000000	0.644009
817.000000	0.642296
816.000000	0.640674
815.000000	0.638747
814.000000	0.636827
813.000000	0.634441
812.000000	0.631956
811.000000	0.629091
810.000000	0.626033
809.000000	0.622815
808.000000	0.619393
807.000000	0.615868
806.000000	0.612187
805.000000	0.608281
804.000000	0.604274
803.000000	0.600087
802.000000	0.595940
801.000000	0.591189
800.000000	0.586351
799.000000	0.581315
798.000000	0.576266
797.000000	0.571071
796.000000	0.565349
795.000000	0.559208
794.000000	0.553618
793.000000	0.547401
792.000000	0.541577
791.000000	0.535574
790.000000	0.529689
789.000000	0.523527
788.000000	0.517418
787.000000	0.511367
786.000000	0.505125
785.000000	0.499007
784.000000	0.493002
783.000000	0.486630
782.000000	0.480159
781.000000	0.473344
780.000000	0.466621
779.000000	0.459904
778.000000	0.453466
777.000000	0.446954
776.000000	0.440660
775.000000	0.434292
774.000000	0.427976
773.000000	0.421337
772.000000	0.414922
771.000000	0.408397
770.000000	0.401874
769.000000	0.395489
768.000000	0.388952
767.000000	0.382410
766.000000	0.375645
765.000000	0.368854
764.000000	0.362179
763.000000	0.355584
762.000000	0.349274
761.000000	0.343065
760.000000	0.336813
759.000000	0.330850
758.000000	0.324938
757.000000	0.318969
756.000000	0.313139
755.000000	0.307209
754.000000	0.301571
753.000000	0.295795
752.000000	0.290139
751.000000	0.284386
750.000000	0.278801
749.000000	0.273431
748.000000	0.268198
747.000000	0.262884
746.000000	0.257828
745.000000	0.252879
744.000000	0.247867
743.000000	0.242937
742.000000	0.238182
741.000000	0.233386
740.000000	0.228712
739.000000	0.224164
738.000000	0.219668
737.000000	0.215158
736.000000	0.210886
735.000000	0.206699
734.000000	0.202357
733.000000	0.198128
732.000000	0.194229
731.000000	0.190081
730.000000	0.186413
729.000000	0.182902
728.000000	0.178975
727.000000	0.175459
726.000000	0.172068
725.000000	0.168751
724.000000	0.165342
723.000000	0.162231
722.000000	0.159311
721.000000	0.156222
720.000000	0.153602
719.000000	0.150881
718.000000	0.148334
717.000000	0.146081
716.000000	0.143695
715.000000	0.141484
714.000000	0.139326
713.000000	0.137418
712.000000	0.135448
711.000000	0.133742
710.000000	0.131952
709.000000	0.130316
708.000000	0.128761
707.000000	0.127322
706.000000	0.125900
705.000000	0.124554
704.000000	0.123321
703.000000	0.122131
702.000000	0.121091
701.000000	0.120133
700.000000	0.119054
699.000000	0.118184
698.000000	0.117300
697.000000	0.116454
696.000000	0.115766
695.000000	0.115035
694.000000	0.114432
693.000000	0.113830
692.000000	0.113274
691.000000	0.112885
690.000000	0.112431
689.000000	0.112067
688.000000	0.111761
687.000000	0.111454
686.000000	0.111252
685.000000	0.110957
684.000000	0.110643
683.000000	0.110721
682.000000	0.110647
681.000000	0.110428
680.000000	0.110448
679.000000	0.110482
678.000000	0.110602
677.000000	0.110701
676.000000	0.110806
675.000000	0.110874
674.000000	0.111122
673.000000	0.111443
672.000000	0.111775
671.000000	0.112038
670.000000	0.112301
669.000000	0.112656
668.000000	0.113070
667.000000	0.113344
666.000000	0.113832
665.000000	0.114170
664.000000	0.114648
663.000000	0.115042
662.000000	0.115477
661.000000	0.116066
660.000000	0.116445
659.000000	0.116983
658.000000	0.117488
657.000000	0.118148
656.000000	0.118770
655.000000	0.119373
654.000000	0.119939
653.000000	0.120534
652.000000	0.121158
651.000000	0.121837
650.000000	0.122508
649.000000	0.123121
648.000000	0.123860
647.000000	0.124466
646.000000	0.125324
645.000000	0.126084
644.000000	0.126805
643.000000	0.127631
642.000000	0.128270
641.000000	0.129079
640.000000	0.130044
639.000000	0.130755
638.000000	0.131649
637.000000	0.132524
636.000000	0.133406
635.000000	0.134330
634.000000	0.135130
633.000000	0.136160
632.000000	0.137010
631.000000	0.137949
630.000000	0.138989
629.000000	0.139822
628.000000	0.140824
627.000000	0.141751
626.000000	0.142881
625.000000	0.143906
624.000000	0.144976
623.000000	0.146136
622.000000	0.147281
621.000000	0.148420
620.000000	0.149619
619.000000	0.150862
618.000000	0.152088
617.000000	0.153231
616.000000	0.154591
615.000000	0.155975
614.000000	0.157276
613.000000	0.158585
612.000000	0.160118
611.000000	0.161611
610.000000	0.163032
609.000000	0.164638
608.000000	0.166160
607.000000	0.167851
606.000000	0.169502
605.000000	0.171253
604.000000	0.172977
603.000000	0.174727
602.000000	0.176704
601.000000	0.178568
600.000000	0.180639
599.000000	0.182653
598.000000	0.184872
597.000000	0.186972
596.000000	0.189201
595.000000	0.191514
594.000000	0.193837
593.000000	0.196495
592.000000	0.199114
591.000000	0.201665
590.000000	0.204428
589.000000	0.207347
588.000000	0.210144
587.000000	0.213234
586.000000	0.216241
585.000000	0.219453
584.000000	0.222780
583.000000	0.226164
582.000000	0.229621
581.000000	0.233207
580.000000	0.237094
579.000000	0.240892
578.000000	0.245029
577.000000	0.249028
576.000000	0.253335
575.000000	0.257895
574.000000	0.262413
573.000000	0.266991
572.000000	0.271929
571.000000	0.277007
570.000000	0.282063
569.000000	0.287357
568.000000	0.292706
567.000000	0.298077
566.000000	0.303659
565.000000	0.309031
564.000000	0.314725
563.000000	0.320458
562.000000	0.326241
561.000000	0.332244
560.000000	0.338189
559.000000	0.344176
558.000000	0.350089
557.000000	0.356026
556.000000	0.361991
555.000000	0.367825
554.000000	0.373719
553.000000	0.379370
552.000000	0.385045
551.000000	0.390561
550.000000	0.395904
549.000000	0.401219
548.000000	0.406368
547.000000	0.411346
546.000000	0.416313
545.000000	0.421239
544.000000	0.425770
543.000000	0.430264
542.000000	0.434347
541.000000	0.438367
540.000000	0.442017
539.000000	0.445534
538.000000	0.448760
537.000000	0.451704
536.000000	0.454592
535.000000	0.457089
534.000000	0.459362
533.000000	0.461451
532.000000	0.463136
531.000000	0.464674
530.000000	0.465891
529.000000	0.466868
528.000000	0.467563
527.000000	0.468008
526.000000	0.468101
525.000000	0.467862
524.000000	0.467404
523.000000	0.466641
522.000000	0.465684
521.000000	0.464315
520.000000	0.462870
519.000000	0.460929
518.000000	0.458876
517.000000	0.456339
516.000000	0.453735
515.000000	0.450664
514.000000	0.447366
513.000000	0.443853
512.000000	0.440187
511.000000	0.436341
510.000000	0.432116
509.000000	0.427871
508.000000	0.423488
507.000000	0.418829
506.000000	0.414063
505.000000	0.409207
504.000000	0.404111
503.000000	0.398932
502.000000	0.393916
501.000000	0.388798
500.000000	0.383938
499.000000	0.378730
498.000000	0.373855
497.000000	0.369021
496.000000	0.364346
495.000000	0.359736
494.000000	0.355344
493.000000	0.351362
492.000000	0.347515
491.000000	0.343833
490.000000	0.340291
489.000000	0.336916
488.000000	0.333737
487.000000	0.330728
486.000000	0.327894
485.000000	0.325280
484.000000	0.322983
483.000000	0.320604
482.000000	0.318572
481.000000	0.316841
480.000000	0.315111
479.000000	0.313394
478.000000	0.311995
477.000000	0.310757
476.000000	0.309519
475.000000	0.308336
474.000000	0.307475
473.000000	0.306546
472.000000	0.305855
471.000000	0.305106
470.000000	0.304454
469.000000	0.303922
468.000000	0.303433
467.000000	0.302889
466.000000	0.302460
465.000000	0.302121
464.000000	0.301998
463.000000	0.301724
462.000000	0.301541
461.000000	0.301504
460.000000	0.301434
459.000000	0.301364
458.000000	0.301386
457.000000	0.301386
456.000000	0.301510
455.000000	0.301542
454.000000	0.301812
453.000000	0.301882
452.000000	0.302261
451.000000	0.302369
450.000000	0.302667
449.000000	0.302835
448.000000	0.303079
447.000000	0.303480
446.000000	0.303845
445.000000	0.304242
444.000000	0.304423
443.000000	0.304920
442.000000	0.305315
441.000000	0.305657
440.000000	0.305918
439.000000	0.306612
438.000000	0.306886
437.000000	0.307348
436.000000	0.307932
435.000000	0.308281
434.000000	0.308846
433.000000	0.309347
432.000000	0.309688
431.000000	0.310217
430.000000	0.310714
429.000000	0.311275
428.000000	0.311791
427.000000	0.312397
426.000000	0.313083
425.000000	0.313720
424.000000	0.314176
423.000000	0.314791
422.000000	0.315246
421.000000	0.315821
420.000000	0.316430
419.000000	0.317135
418.000000	0.317678
417.000000	0.318472
416.000000	0.319158
415.000000	0.319799
414.000000	0.320553
413.000000	0.321103
412.000000	0.321736
411.000000	0.322646
410.000000	0.323295
409.000000	0.324091
408.000000	0.324741
407.000000	0.325559
406.000000	0.326213
405.000000	0.327091
404.000000	0.327770
403.000000	0.328511
402.000000	0.329171
401.000000	0.330114
400.000000	0.330704
399.000000	0.331448
398.000000	0.332431
397.000000	0.333272
396.000000	0.334198
395.000000	0.334933
394.000000	0.335844
393.000000	0.336531
392.000000	0.337145
391.000000	0.337826
390.000000	0.338621
389.000000	0.339418
388.000000	0.340149
387.000000	0.341028
386.000000	0.341822
385.000000	0.342512
384.000000	0.343181
383.000000	0.343311
382.000000	0.343730
381.000000	0.345467
380.000000	0.345681
379.000000	0.346128
378.000000	0.347167
377.000000	0.348162
376.000000	0.348822
375.000000	0.349695
374.000000	0.350387
373.000000	0.351200
372.000000	0.351726
371.000000	0.352346
370.000000	0.352978
369.000000	0.353671
368.000000	0.354256
367.000000	0.354822
366.000000	0.355352
365.000000	0.356019
364.000000	0.356462
363.000000	0.356794
362.000000	0.357406
361.000000	0.357643
360.000000	0.358237
359.000000	0.358412
358.000000	0.358873
357.000000	0.359351
356.000000	0.359519
355.000000	0.360108
354.000000	0.360616
353.000000	0.360679
352.000000	0.361114
351.000000	0.361666
350.000000	0.362209
