PE UV       SUBTECH     SPECTRUM    ASCII       PEDS        4.00        
   -1
GNRs_ctab_170ul_orig.Sample.asc
13/12/09
17:10:54.00
13/12/09
17:10:54.00
Administrator

350.000000
1
Lambda 25
1
PerkinElmer UV WinLab 6.0.3.0730 / Lambda25 1.27

480
2
1
0
0
Both on
1
1
1
6x Cell Changer
0
0
0
0
 
 
0
0
0
0
0
 
 
 
0
 
0
326
0
 
0
 
 
 
0
0
0
 
0
 
 
 
0
 
 
0
0
0
0
0
 
 
 
 
0
0


#HDR
-1
-1
#GR
nm
A
1.0
0.0
1100.000000
-1.000000
751
8
0.969626
0.094702
#DATA
1100.000000	0.157174
1099.000000	0.158274
1098.000000	0.158676
1097.000000	0.159651
1096.000000	0.159822
1095.000000	0.160671
1094.000000	0.161380
1093.000000	0.162758
1092.000000	0.162706
1091.000000	0.164142
1090.000000	0.165141
1089.000000	0.165297
1088.000000	0.165729
1087.000000	0.167471
1086.000000	0.167988
1085.000000	0.168899
1084.000000	0.169658
1083.000000	0.170674
1082.000000	0.171882
1081.000000	0.172824
1080.000000	0.173260
1079.000000	0.174662
1078.000000	0.175960
1077.000000	0.177066
1076.000000	0.177798
1075.000000	0.178733
1074.000000	0.179623
1073.000000	0.180463
1072.000000	0.182205
1071.000000	0.182834
1070.000000	0.183813
1069.000000	0.184635
1068.000000	0.186220
1067.000000	0.186582
1066.000000	0.188175
1065.000000	0.188869
1064.000000	0.189713
1063.000000	0.190806
1062.000000	0.191941
1061.000000	0.192664
1060.000000	0.193893
1059.000000	0.194663
1058.000000	0.195755
1057.000000	0.196820
1056.000000	0.197619
1055.000000	0.198632
1054.000000	0.199831
1053.000000	0.200889
1052.000000	0.202172
1051.000000	0.202838
1050.000000	0.204080
1049.000000	0.205245
1048.000000	0.206171
1047.000000	0.207396
1046.000000	0.208363
1045.000000	0.209591
1044.000000	0.210615
1043.000000	0.211665
1042.000000	0.212939
1041.000000	0.213828
1040.000000	0.215022
1039.000000	0.216241
1038.000000	0.217413
1037.000000	0.218403
1036.000000	0.219583
1035.000000	0.220812
1034.000000	0.221668
1033.000000	0.222781
1032.000000	0.223481
1031.000000	0.224681
1030.000000	0.225788
1029.000000	0.226967
1028.000000	0.227969
1027.000000	0.228715
1026.000000	0.230019
1025.000000	0.231043
1024.000000	0.232196
1023.000000	0.232876
1022.000000	0.233964
1021.000000	0.235274
1020.000000	0.235920
1019.000000	0.237062
1018.000000	0.238180
1017.000000	0.239123
1016.000000	0.240070
1015.000000	0.241274
1014.000000	0.242193
1013.000000	0.243262
1012.000000	0.244185
1011.000000	0.245077
1010.000000	0.246080
1009.000000	0.247146
1008.000000	0.248004
1007.000000	0.248798
1006.000000	0.249518
1005.000000	0.250491
1004.000000	0.251206
1003.000000	0.252042
1002.000000	0.252872
1001.000000	0.253836
1000.000000	0.254649
999.000000	0.255580
998.000000	0.256380
997.000000	0.257230
996.000000	0.257830
995.000000	0.258606
994.000000	0.259320
993.000000	0.260089
992.000000	0.260879
991.000000	0.261608
990.000000	0.262633
989.000000	0.263368
988.000000	0.264288
987.000000	0.264980
986.000000	0.265807
985.000000	0.266798
984.000000	0.267551
983.000000	0.268423
982.000000	0.269108
981.000000	0.270111
980.000000	0.270944
979.000000	0.271743
978.000000	0.272718
977.000000	0.273420
976.000000	0.274452
975.000000	0.275158
974.000000	0.276121
973.000000	0.277076
972.000000	0.277825
971.000000	0.278704
970.000000	0.279750
969.000000	0.280733
968.000000	0.281684
967.000000	0.282651
966.000000	0.284002
965.000000	0.284840
964.000000	0.286326
963.000000	0.287207
962.000000	0.288797
961.000000	0.289783
960.000000	0.291154
959.000000	0.292520
958.000000	0.294012
957.000000	0.295430
956.000000	0.297177
955.000000	0.298917
954.000000	0.300704
953.000000	0.302335
952.000000	0.304028
951.000000	0.305501
950.000000	0.307498
949.000000	0.309340
948.000000	0.311445
947.000000	0.313187
946.000000	0.315334
945.000000	0.317214
944.000000	0.319224
943.000000	0.321539
942.000000	0.323733
941.000000	0.326145
940.000000	0.328461
939.000000	0.330979
938.000000	0.333596
937.000000	0.336275
936.000000	0.339183
935.000000	0.341868
934.000000	0.344859
933.000000	0.347890
932.000000	0.350895
931.000000	0.354310
930.000000	0.357569
929.000000	0.360903
928.000000	0.364389
927.000000	0.368230
926.000000	0.372033
925.000000	0.376093
924.000000	0.380271
923.000000	0.384292
922.000000	0.388538
921.000000	0.392712
920.000000	0.396956
919.000000	0.401351
918.000000	0.405662
917.000000	0.410067
916.000000	0.414604
915.000000	0.419140
914.000000	0.423913
913.000000	0.428672
912.000000	0.433779
911.000000	0.438887
910.000000	0.444056
909.000000	0.449441
908.000000	0.454755
907.000000	0.460410
906.000000	0.466238
905.000000	0.471894
904.000000	0.478223
903.000000	0.484141
902.000000	0.490410
901.000000	0.496485
900.000000	0.502750
899.000000	0.509006
898.000000	0.515836
897.000000	0.522895
896.000000	0.530178
895.000000	0.537565
894.000000	0.544685
893.000000	0.551711
892.000000	0.558961
891.000000	0.565830
890.000000	0.572970
889.000000	0.579946
888.000000	0.587173
887.000000	0.594150
886.000000	0.601561
885.000000	0.608973
884.000000	0.616529
883.000000	0.623819
882.000000	0.631634
881.000000	0.639239
880.000000	0.647208
879.000000	0.655133
878.000000	0.662818
877.000000	0.671029
876.000000	0.679336
875.000000	0.687405
874.000000	0.695706
873.000000	0.703867
872.000000	0.712031
871.000000	0.720270
870.000000	0.728240
869.000000	0.736399
868.000000	0.744608
867.000000	0.752727
866.000000	0.761280
865.000000	0.769514
864.000000	0.777599
863.000000	0.785328
862.000000	0.793333
861.000000	0.801024
860.000000	0.808826
859.000000	0.816166
858.000000	0.823383
857.000000	0.830657
856.000000	0.838167
855.000000	0.845250
854.000000	0.852169
853.000000	0.858759
852.000000	0.865473
851.000000	0.872043
850.000000	0.878790
849.000000	0.885207
848.000000	0.891239
847.000000	0.897664
846.000000	0.903451
845.000000	0.909135
844.000000	0.914505
843.000000	0.919633
842.000000	0.924911
841.000000	0.929864
840.000000	0.934579
839.000000	0.939000
838.000000	0.943187
837.000000	0.947046
836.000000	0.950604
835.000000	0.953804
834.000000	0.956894
833.000000	0.959541
832.000000	0.961846
831.000000	0.963984
830.000000	0.965636
829.000000	0.967025
828.000000	0.968229
827.000000	0.968641
826.000000	0.969503
825.000000	0.969506
824.000000	0.969626
823.000000	0.968966
822.000000	0.968361
821.000000	0.966982
820.000000	0.965705
819.000000	0.963805
818.000000	0.961694
817.000000	0.959200
816.000000	0.956428
815.000000	0.953530
814.000000	0.950011
813.000000	0.946102
812.000000	0.941897
811.000000	0.937096
810.000000	0.932132
809.000000	0.926770
808.000000	0.920792
807.000000	0.914805
806.000000	0.908893
805.000000	0.902276
804.000000	0.895697
803.000000	0.888679
802.000000	0.881449
801.000000	0.873752
800.000000	0.865638
799.000000	0.857246
798.000000	0.848544
797.000000	0.839834
796.000000	0.830206
795.000000	0.819611
794.000000	0.810681
793.000000	0.799936
792.000000	0.790444
791.000000	0.780511
790.000000	0.770696
789.000000	0.760517
788.000000	0.750349
787.000000	0.740293
786.000000	0.730350
785.000000	0.719961
784.000000	0.709898
783.000000	0.699517
782.000000	0.688770
781.000000	0.677545
780.000000	0.666495
779.000000	0.655313
778.000000	0.644579
777.000000	0.633786
776.000000	0.623265
775.000000	0.612520
774.000000	0.602131
773.000000	0.591414
772.000000	0.580654
771.000000	0.569819
770.000000	0.558904
769.000000	0.548237
768.000000	0.537399
767.000000	0.526532
766.000000	0.515488
765.000000	0.504326
764.000000	0.493184
763.000000	0.482262
762.000000	0.471702
761.000000	0.461465
760.000000	0.451304
759.000000	0.441310
758.000000	0.431552
757.000000	0.421822
756.000000	0.412440
755.000000	0.402926
754.000000	0.393648
753.000000	0.384412
752.000000	0.375069
751.000000	0.366018
750.000000	0.357229
749.000000	0.348689
748.000000	0.340562
747.000000	0.332400
746.000000	0.324736
745.000000	0.317149
744.000000	0.309772
743.000000	0.302416
742.000000	0.295430
741.000000	0.288486
740.000000	0.281723
739.000000	0.275212
738.000000	0.268916
737.000000	0.262727
736.000000	0.256719
735.000000	0.250977
734.000000	0.245008
733.000000	0.239408
732.000000	0.234039
731.000000	0.228674
730.000000	0.223715
729.000000	0.218849
728.000000	0.214187
727.000000	0.209325
726.000000	0.204823
725.000000	0.200432
724.000000	0.195967
723.000000	0.191724
722.000000	0.187565
721.000000	0.183659
720.000000	0.179930
719.000000	0.176214
718.000000	0.172719
717.000000	0.169548
716.000000	0.166300
715.000000	0.163167
714.000000	0.160190
713.000000	0.157312
712.000000	0.154456
711.000000	0.151859
710.000000	0.149224
709.000000	0.146778
708.000000	0.144436
707.000000	0.141963
706.000000	0.139663
705.000000	0.137589
704.000000	0.135520
703.000000	0.133541
702.000000	0.131645
701.000000	0.129846
700.000000	0.128027
699.000000	0.126246
698.000000	0.124554
697.000000	0.122916
696.000000	0.121409
695.000000	0.119830
694.000000	0.118343
693.000000	0.116895
692.000000	0.115537
691.000000	0.114376
690.000000	0.113185
689.000000	0.111948
688.000000	0.110865
687.000000	0.109768
686.000000	0.108805
685.000000	0.107705
684.000000	0.106457
683.000000	0.105837
682.000000	0.104903
681.000000	0.103942
680.000000	0.103245
679.000000	0.102563
678.000000	0.101804
677.000000	0.101143
676.000000	0.100538
675.000000	0.099995
674.000000	0.099383
673.000000	0.099005
672.000000	0.098606
671.000000	0.098178
670.000000	0.097758
669.000000	0.097313
668.000000	0.097147
667.000000	0.096668
666.000000	0.096505
665.000000	0.096046
664.000000	0.095912
663.000000	0.095557
662.000000	0.095443
661.000000	0.095376
660.000000	0.094996
659.000000	0.095012
658.000000	0.094839
657.000000	0.094802
656.000000	0.094762
655.000000	0.094750
654.000000	0.094702
653.000000	0.094742
652.000000	0.094740
651.000000	0.094854
650.000000	0.094822
649.000000	0.094922
648.000000	0.095073
647.000000	0.095135
646.000000	0.095313
645.000000	0.095622
644.000000	0.095656
643.000000	0.095871
642.000000	0.096082
641.000000	0.096273
640.000000	0.096617
639.000000	0.096984
638.000000	0.097226
637.000000	0.097557
636.000000	0.097923
635.000000	0.098348
634.000000	0.098744
633.000000	0.099204
632.000000	0.099586
631.000000	0.100104
630.000000	0.100534
629.000000	0.101078
628.000000	0.101602
627.000000	0.102127
626.000000	0.102770
625.000000	0.103354
624.000000	0.103978
623.000000	0.104668
622.000000	0.105319
621.000000	0.106118
620.000000	0.106842
619.000000	0.107764
618.000000	0.108575
617.000000	0.109338
616.000000	0.110383
615.000000	0.111294
614.000000	0.112234
613.000000	0.113271
612.000000	0.114401
611.000000	0.115622
610.000000	0.116744
609.000000	0.118009
608.000000	0.119372
607.000000	0.120697
606.000000	0.122187
605.000000	0.123693
604.000000	0.125259
603.000000	0.126755
602.000000	0.128429
601.000000	0.130179
600.000000	0.132047
599.000000	0.133939
598.000000	0.136115
597.000000	0.138164
596.000000	0.140136
595.000000	0.142441
594.000000	0.144878
593.000000	0.147369
592.000000	0.149836
591.000000	0.152472
590.000000	0.155267
589.000000	0.158185
588.000000	0.161158
587.000000	0.164293
586.000000	0.167542
585.000000	0.170855
584.000000	0.174400
583.000000	0.177976
582.000000	0.181588
581.000000	0.185490
580.000000	0.189583
579.000000	0.193709
578.000000	0.198074
577.000000	0.202385
576.000000	0.206968
575.000000	0.211843
574.000000	0.216693
573.000000	0.221606
572.000000	0.226683
571.000000	0.232085
570.000000	0.237601
569.000000	0.243361
568.000000	0.248979
567.000000	0.254647
566.000000	0.260566
565.000000	0.266428
564.000000	0.272247
563.000000	0.278418
562.000000	0.284530
561.000000	0.290708
560.000000	0.296928
559.000000	0.303141
558.000000	0.309592
557.000000	0.315849
556.000000	0.322149
555.000000	0.328156
554.000000	0.334397
553.000000	0.340293
552.000000	0.346128
551.000000	0.351945
550.000000	0.357613
549.000000	0.363104
548.000000	0.368580
547.000000	0.373786
546.000000	0.379026
545.000000	0.384178
544.000000	0.388880
543.000000	0.393545
542.000000	0.397967
541.000000	0.402153
540.000000	0.406052
539.000000	0.409798
538.000000	0.413282
537.000000	0.416479
536.000000	0.419441
535.000000	0.422193
534.000000	0.424731
533.000000	0.427062
532.000000	0.429060
531.000000	0.430700
530.000000	0.432275
529.000000	0.433601
528.000000	0.434518
527.000000	0.435415
526.000000	0.435792
525.000000	0.436120
524.000000	0.435941
523.000000	0.435649
522.000000	0.435183
521.000000	0.434383
520.000000	0.433428
519.000000	0.432187
518.000000	0.430652
517.000000	0.429061
516.000000	0.427043
515.000000	0.424745
514.000000	0.422396
513.000000	0.419720
512.000000	0.416712
511.000000	0.413675
510.000000	0.410412
509.000000	0.407052
508.000000	0.403413
507.000000	0.399680
506.000000	0.395768
505.000000	0.391686
504.000000	0.387579
503.000000	0.383272
502.000000	0.378914
501.000000	0.374608
500.000000	0.370328
499.000000	0.366031
498.000000	0.361782
497.000000	0.357638
496.000000	0.353549
495.000000	0.349572
494.000000	0.345680
493.000000	0.342194
492.000000	0.338738
491.000000	0.335486
490.000000	0.332352
489.000000	0.329502
488.000000	0.326680
487.000000	0.324020
486.000000	0.321552
485.000000	0.319263
484.000000	0.317274
483.000000	0.315252
482.000000	0.313574
481.000000	0.312015
480.000000	0.310628
479.000000	0.309145
478.000000	0.308061
477.000000	0.306985
476.000000	0.305928
475.000000	0.304991
474.000000	0.304222
473.000000	0.303577
472.000000	0.303083
471.000000	0.302510
470.000000	0.302011
469.000000	0.301684
468.000000	0.301432
467.000000	0.301041
466.000000	0.300697
465.000000	0.300585
464.000000	0.300504
463.000000	0.300412
462.000000	0.300412
461.000000	0.300471
460.000000	0.300519
459.000000	0.300664
458.000000	0.300825
457.000000	0.300944
456.000000	0.301208
455.000000	0.301229
454.000000	0.301737
453.000000	0.301969
452.000000	0.302444
451.000000	0.302661
450.000000	0.303013
449.000000	0.303322
448.000000	0.303762
447.000000	0.304099
446.000000	0.304508
445.000000	0.304960
444.000000	0.305414
443.000000	0.305804
442.000000	0.306375
441.000000	0.306729
440.000000	0.307102
439.000000	0.307831
438.000000	0.308174
437.000000	0.308693
436.000000	0.309325
435.000000	0.309820
434.000000	0.310278
433.000000	0.310859
432.000000	0.311236
431.000000	0.311724
430.000000	0.312190
429.000000	0.312822
428.000000	0.313340
427.000000	0.314028
426.000000	0.314695
425.000000	0.315154
424.000000	0.315851
423.000000	0.316355
422.000000	0.316858
421.000000	0.317481
420.000000	0.318116
419.000000	0.318767
418.000000	0.319416
417.000000	0.320168
416.000000	0.320891
415.000000	0.321593
414.000000	0.322270
413.000000	0.322858
412.000000	0.323599
411.000000	0.324362
410.000000	0.325085
409.000000	0.325814
408.000000	0.326562
407.000000	0.327337
406.000000	0.327995
405.000000	0.328866
404.000000	0.329584
403.000000	0.330400
402.000000	0.331041
401.000000	0.331847
400.000000	0.332524
399.000000	0.333284
398.000000	0.334153
397.000000	0.334999
396.000000	0.335882
395.000000	0.336645
394.000000	0.337585
393.000000	0.338168
392.000000	0.338810
391.000000	0.339534
390.000000	0.340321
389.000000	0.341160
388.000000	0.341884
387.000000	0.342781
386.000000	0.343606
385.000000	0.344177
384.000000	0.344927
383.000000	0.345260
382.000000	0.345508
381.000000	0.347043
380.000000	0.347744
379.000000	0.347945
378.000000	0.349405
377.000000	0.349832
376.000000	0.350539
375.000000	0.351510
374.000000	0.352094
373.000000	0.352954
372.000000	0.353527
371.000000	0.354220
370.000000	0.354767
369.000000	0.355748
368.000000	0.355954
367.000000	0.356635
366.000000	0.357415
365.000000	0.357861
364.000000	0.358366
363.000000	0.358965
362.000000	0.359256
361.000000	0.359831
360.000000	0.360296
359.000000	0.360756
358.000000	0.361338
357.000000	0.361602
356.000000	0.361990
355.000000	0.362335
354.000000	0.363051
353.000000	0.363463
352.000000	0.363926
351.000000	0.364448
350.000000	0.364990
