PE UV       SUBTECH     SPECTRUM    ASCII       PEDS        4.00        
   -1
GNRs_ctab_170ul_7W_5mins.Sample.asc
13/12/09
17:19:27.00
13/12/09
17:19:27.00
Administrator

350.000000
1
Lambda 25
1
PerkinElmer UV WinLab 6.0.3.0730 / Lambda25 1.27

480
2
1
0
0
Both on
1
1
1
6x Cell Changer
0
0
0
0
 
 
0
0
0
0
0
 
 
 
0
 
0
326
0
 
0
 
 
 
0
0
0
 
0
 
 
 
0
 
 
0
0
0
0
0
 
 
 
 
0
0


#HDR
-1
-1
#GR
nm
A
1.0
0.0
1100.000000
-1.000000
751
8
0.487093
0.113397
#DATA
1100.000000	0.113397
1099.000000	0.113911
1098.000000	0.114783
1097.000000	0.115834
1096.000000	0.115987
1095.000000	0.116504
1094.000000	0.117059
1093.000000	0.118847
1092.000000	0.118354
1091.000000	0.119484
1090.000000	0.120081
1089.000000	0.121322
1088.000000	0.121290
1087.000000	0.122799
1086.000000	0.123028
1085.000000	0.124318
1084.000000	0.124412
1083.000000	0.125708
1082.000000	0.126257
1081.000000	0.127186
1080.000000	0.128015
1079.000000	0.128715
1078.000000	0.129860
1077.000000	0.130777
1076.000000	0.131381
1075.000000	0.132229
1074.000000	0.133211
1073.000000	0.133773
1072.000000	0.134890
1071.000000	0.135923
1070.000000	0.136384
1069.000000	0.137580
1068.000000	0.138446
1067.000000	0.139053
1066.000000	0.140380
1065.000000	0.141037
1064.000000	0.141390
1063.000000	0.142402
1062.000000	0.143517
1061.000000	0.144158
1060.000000	0.145461
1059.000000	0.146008
1058.000000	0.146675
1057.000000	0.147917
1056.000000	0.148628
1055.000000	0.149280
1054.000000	0.150373
1053.000000	0.151296
1052.000000	0.152109
1051.000000	0.152913
1050.000000	0.153854
1049.000000	0.154756
1048.000000	0.155555
1047.000000	0.156606
1046.000000	0.157412
1045.000000	0.158673
1044.000000	0.159544
1043.000000	0.160435
1042.000000	0.161602
1041.000000	0.162405
1040.000000	0.163527
1039.000000	0.164214
1038.000000	0.165501
1037.000000	0.166227
1036.000000	0.167286
1035.000000	0.168300
1034.000000	0.169123
1033.000000	0.169974
1032.000000	0.170756
1031.000000	0.171887
1030.000000	0.172738
1029.000000	0.173608
1028.000000	0.174444
1027.000000	0.175311
1026.000000	0.176283
1025.000000	0.177219
1024.000000	0.178263
1023.000000	0.178964
1022.000000	0.179744
1021.000000	0.180813
1020.000000	0.181608
1019.000000	0.182452
1018.000000	0.183407
1017.000000	0.184285
1016.000000	0.185093
1015.000000	0.185929
1014.000000	0.186688
1013.000000	0.187651
1012.000000	0.188651
1011.000000	0.189308
1010.000000	0.190241
1009.000000	0.191090
1008.000000	0.191888
1007.000000	0.192627
1006.000000	0.193035
1005.000000	0.194090
1004.000000	0.194554
1003.000000	0.195225
1002.000000	0.195999
1001.000000	0.196599
1000.000000	0.197334
999.000000	0.197997
998.000000	0.198550
997.000000	0.199302
996.000000	0.199750
995.000000	0.200260
994.000000	0.200807
993.000000	0.201447
992.000000	0.201942
991.000000	0.202430
990.000000	0.203100
989.000000	0.203691
988.000000	0.204145
987.000000	0.204594
986.000000	0.204960
985.000000	0.205700
984.000000	0.205966
983.000000	0.206530
982.000000	0.206989
981.000000	0.207404
980.000000	0.207751
979.000000	0.208029
978.000000	0.208491
977.000000	0.208824
976.000000	0.209134
975.000000	0.209508
974.000000	0.209983
973.000000	0.210188
972.000000	0.210596
971.000000	0.210923
970.000000	0.211173
969.000000	0.211678
968.000000	0.212132
967.000000	0.212623
966.000000	0.212964
965.000000	0.213365
964.000000	0.213857
963.000000	0.214040
962.000000	0.214641
961.000000	0.214951
960.000000	0.215369
959.000000	0.215906
958.000000	0.216543
957.000000	0.216945
956.000000	0.217409
955.000000	0.218208
954.000000	0.218628
953.000000	0.219239
952.000000	0.219669
951.000000	0.220154
950.000000	0.220944
949.000000	0.221341
948.000000	0.222207
947.000000	0.222755
946.000000	0.223507
945.000000	0.224221
944.000000	0.224704
943.000000	0.225699
942.000000	0.226192
941.000000	0.227246
940.000000	0.228140
939.000000	0.228935
938.000000	0.230041
937.000000	0.230948
936.000000	0.232005
935.000000	0.232836
934.000000	0.233950
933.000000	0.235074
932.000000	0.236121
931.000000	0.237332
930.000000	0.238552
929.000000	0.239790
928.000000	0.241252
927.000000	0.242690
926.000000	0.244010
925.000000	0.245624
924.000000	0.247215
923.000000	0.248683
922.000000	0.250356
921.000000	0.251994
920.000000	0.253558
919.000000	0.255251
918.000000	0.256927
917.000000	0.258591
916.000000	0.260295
915.000000	0.261995
914.000000	0.263775
913.000000	0.265472
912.000000	0.267330
911.000000	0.269218
910.000000	0.271033
909.000000	0.273060
908.000000	0.274780
907.000000	0.276866
906.000000	0.278758
905.000000	0.280684
904.000000	0.282806
903.000000	0.284722
902.000000	0.286595
901.000000	0.288435
900.000000	0.290302
899.000000	0.292127
898.000000	0.294209
897.000000	0.296095
896.000000	0.298209
895.000000	0.300141
894.000000	0.302016
893.000000	0.303411
892.000000	0.305208
891.000000	0.306777
890.000000	0.308357
889.000000	0.309770
888.000000	0.311289
887.000000	0.312605
886.000000	0.314006
885.000000	0.315184
884.000000	0.316392
883.000000	0.317490
882.000000	0.318705
881.000000	0.319722
880.000000	0.320745
879.000000	0.321658
878.000000	0.322539
877.000000	0.323438
876.000000	0.324426
875.000000	0.325067
874.000000	0.325734
873.000000	0.326472
872.000000	0.327124
871.000000	0.327612
870.000000	0.328241
869.000000	0.328739
868.000000	0.329156
867.000000	0.329561
866.000000	0.330060
865.000000	0.330398
864.000000	0.330719
863.000000	0.331014
862.000000	0.331467
861.000000	0.331709
860.000000	0.332010
859.000000	0.332196
858.000000	0.332351
857.000000	0.332624
856.000000	0.333017
855.000000	0.333127
854.000000	0.333423
853.000000	0.333511
852.000000	0.333866
851.000000	0.333968
850.000000	0.334146
849.000000	0.334345
848.000000	0.334461
847.000000	0.334692
846.000000	0.335005
845.000000	0.335125
844.000000	0.335307
843.000000	0.335572
842.000000	0.335617
841.000000	0.335755
840.000000	0.336111
839.000000	0.336160
838.000000	0.336338
837.000000	0.336364
836.000000	0.336511
835.000000	0.336552
834.000000	0.336705
833.000000	0.336877
832.000000	0.336927
831.000000	0.336949
830.000000	0.336827
829.000000	0.336985
828.000000	0.336919
827.000000	0.336983
826.000000	0.336929
825.000000	0.336783
824.000000	0.336791
823.000000	0.336458
822.000000	0.336340
821.000000	0.336286
820.000000	0.336000
819.000000	0.335717
818.000000	0.335630
817.000000	0.335252
816.000000	0.334958
815.000000	0.334729
814.000000	0.334413
813.000000	0.334016
812.000000	0.333540
811.000000	0.333059
810.000000	0.332587
809.000000	0.332123
808.000000	0.331470
807.000000	0.330907
806.000000	0.330221
805.000000	0.329701
804.000000	0.328847
803.000000	0.328212
802.000000	0.327449
801.000000	0.326670
800.000000	0.325875
799.000000	0.325052
798.000000	0.324069
797.000000	0.323154
796.000000	0.322264
795.000000	0.321447
794.000000	0.320162
793.000000	0.319063
792.000000	0.318219
791.000000	0.317192
790.000000	0.316071
789.000000	0.314849
788.000000	0.313854
787.000000	0.312848
786.000000	0.311727
785.000000	0.310689
784.000000	0.309621
783.000000	0.308570
782.000000	0.307463
781.000000	0.306247
780.000000	0.305137
779.000000	0.303958
778.000000	0.302871
777.000000	0.301741
776.000000	0.300677
775.000000	0.299545
774.000000	0.298373
773.000000	0.297198
772.000000	0.296076
771.000000	0.294744
770.000000	0.293660
769.000000	0.292398
768.000000	0.290899
767.000000	0.289608
766.000000	0.288133
765.000000	0.286571
764.000000	0.284938
763.000000	0.283253
762.000000	0.281518
761.000000	0.279750
760.000000	0.277824
759.000000	0.275866
758.000000	0.273888
757.000000	0.271595
756.000000	0.269394
755.000000	0.266868
754.000000	0.264259
753.000000	0.261572
752.000000	0.258709
751.000000	0.255668
750.000000	0.252491
749.000000	0.249315
748.000000	0.246117
747.000000	0.242671
746.000000	0.239218
745.000000	0.235763
744.000000	0.232178
743.000000	0.228341
742.000000	0.224910
741.000000	0.221122
740.000000	0.217369
739.000000	0.213716
738.000000	0.209958
737.000000	0.206163
736.000000	0.202503
735.000000	0.198901
734.000000	0.195185
733.000000	0.191561
732.000000	0.188010
731.000000	0.184502
730.000000	0.181126
729.000000	0.177692
728.000000	0.174630
727.000000	0.171469
726.000000	0.168417
725.000000	0.165539
724.000000	0.162555
723.000000	0.159795
722.000000	0.157126
721.000000	0.154583
720.000000	0.152305
719.000000	0.149930
718.000000	0.147790
717.000000	0.145860
716.000000	0.143893
715.000000	0.142063
714.000000	0.140331
713.000000	0.138769
712.000000	0.137211
711.000000	0.135901
710.000000	0.134546
709.000000	0.133357
708.000000	0.132142
707.000000	0.131070
706.000000	0.130103
705.000000	0.129237
704.000000	0.128429
703.000000	0.127655
702.000000	0.127031
701.000000	0.126448
700.000000	0.125946
699.000000	0.125511
698.000000	0.125110
697.000000	0.124800
696.000000	0.124581
695.000000	0.124258
694.000000	0.124117
693.000000	0.124114
692.000000	0.124110
691.000000	0.124147
690.000000	0.124252
689.000000	0.124391
688.000000	0.124595
687.000000	0.124881
686.000000	0.125160
685.000000	0.125438
684.000000	0.125679
683.000000	0.126228
682.000000	0.126717
681.000000	0.127083
680.000000	0.127583
679.000000	0.128166
678.000000	0.128800
677.000000	0.129438
676.000000	0.130106
675.000000	0.130675
674.000000	0.131485
673.000000	0.132352
672.000000	0.133203
671.000000	0.134006
670.000000	0.134829
669.000000	0.135626
668.000000	0.136603
667.000000	0.137513
666.000000	0.138425
665.000000	0.139337
664.000000	0.140379
663.000000	0.141342
662.000000	0.142274
661.000000	0.143333
660.000000	0.144216
659.000000	0.145319
658.000000	0.146385
657.000000	0.147501
656.000000	0.148551
655.000000	0.149684
654.000000	0.150832
653.000000	0.151838
652.000000	0.152944
651.000000	0.154188
650.000000	0.155272
649.000000	0.156512
648.000000	0.157693
647.000000	0.158828
646.000000	0.160086
645.000000	0.161450
644.000000	0.162533
643.000000	0.163806
642.000000	0.164906
641.000000	0.166201
640.000000	0.167536
639.000000	0.168830
638.000000	0.170122
637.000000	0.171344
636.000000	0.172810
635.000000	0.174090
634.000000	0.175372
633.000000	0.176804
632.000000	0.178051
631.000000	0.179434
630.000000	0.180891
629.000000	0.182222
628.000000	0.183627
627.000000	0.184927
626.000000	0.186462
625.000000	0.187774
624.000000	0.189183
623.000000	0.190655
622.000000	0.192042
621.000000	0.193552
620.000000	0.194961
619.000000	0.196517
618.000000	0.197943
617.000000	0.199431
616.000000	0.200854
615.000000	0.202465
614.000000	0.203909
613.000000	0.205333
612.000000	0.206931
611.000000	0.208535
610.000000	0.210032
609.000000	0.211703
608.000000	0.213259
607.000000	0.214905
606.000000	0.216500
605.000000	0.218247
604.000000	0.219883
603.000000	0.221512
602.000000	0.223273
601.000000	0.225114
600.000000	0.227030
599.000000	0.228830
598.000000	0.230818
597.000000	0.232668
596.000000	0.234540
595.000000	0.236547
594.000000	0.238660
593.000000	0.240914
592.000000	0.243055
591.000000	0.245277
590.000000	0.247677
589.000000	0.249985
588.000000	0.252407
587.000000	0.254887
586.000000	0.257462
585.000000	0.260148
584.000000	0.262961
583.000000	0.265674
582.000000	0.268613
581.000000	0.271524
580.000000	0.274740
579.000000	0.277895
578.000000	0.281269
577.000000	0.284630
576.000000	0.288125
575.000000	0.291856
574.000000	0.295740
573.000000	0.299505
572.000000	0.303599
571.000000	0.307900
570.000000	0.312188
569.000000	0.316593
568.000000	0.321119
567.000000	0.325569
566.000000	0.330480
565.000000	0.335160
564.000000	0.340115
563.000000	0.345157
562.000000	0.350280
561.000000	0.355535
560.000000	0.360836
559.000000	0.366016
558.000000	0.371521
557.000000	0.376944
556.000000	0.382488
555.000000	0.387919
554.000000	0.393385
553.000000	0.398736
552.000000	0.403935
551.000000	0.409214
550.000000	0.414388
549.000000	0.419411
548.000000	0.424363
547.000000	0.429316
546.000000	0.434154
545.000000	0.438900
544.000000	0.443379
543.000000	0.447800
542.000000	0.451869
541.000000	0.455823
540.000000	0.459531
539.000000	0.463099
538.000000	0.466347
537.000000	0.469413
536.000000	0.472356
535.000000	0.475020
534.000000	0.477435
533.000000	0.479611
532.000000	0.481417
531.000000	0.483052
530.000000	0.484434
529.000000	0.485564
528.000000	0.486275
527.000000	0.486848
526.000000	0.487093
525.000000	0.486892
524.000000	0.486479
523.000000	0.485682
522.000000	0.484630
521.000000	0.483297
520.000000	0.481639
519.000000	0.479599
518.000000	0.477265
517.000000	0.474473
516.000000	0.471474
515.000000	0.468026
514.000000	0.464394
513.000000	0.460419
512.000000	0.456245
511.000000	0.451800
510.000000	0.447068
509.000000	0.442307
508.000000	0.437266
507.000000	0.431970
506.000000	0.426575
505.000000	0.421046
504.000000	0.415354
503.000000	0.409726
502.000000	0.404128
501.000000	0.398397
500.000000	0.392746
499.000000	0.387135
498.000000	0.381744
497.000000	0.376354
496.000000	0.371076
495.000000	0.366013
494.000000	0.361264
493.000000	0.356853
492.000000	0.352539
491.000000	0.348554
490.000000	0.344621
489.000000	0.341015
488.000000	0.337424
487.000000	0.334058
486.000000	0.330917
485.000000	0.328127
484.000000	0.325534
483.000000	0.322839
482.000000	0.320664
481.000000	0.318603
480.000000	0.316590
479.000000	0.314846
478.000000	0.313179
477.000000	0.311773
476.000000	0.310413
475.000000	0.309087
474.000000	0.307822
473.000000	0.306903
472.000000	0.306060
471.000000	0.305225
470.000000	0.304433
469.000000	0.303771
468.000000	0.303056
467.000000	0.302577
466.000000	0.301825
465.000000	0.301401
464.000000	0.301116
463.000000	0.300756
462.000000	0.300530
461.000000	0.300331
460.000000	0.300164
459.000000	0.299922
458.000000	0.299900
457.000000	0.299846
456.000000	0.299916
455.000000	0.299711
454.000000	0.300023
453.000000	0.300093
452.000000	0.300276
451.000000	0.300362
450.000000	0.300561
449.000000	0.300782
448.000000	0.300960
447.000000	0.301165
446.000000	0.301397
445.000000	0.301716
444.000000	0.301992
443.000000	0.302334
442.000000	0.302779
441.000000	0.302900
440.000000	0.303233
439.000000	0.303638
438.000000	0.304082
437.000000	0.304352
436.000000	0.304875
435.000000	0.305164
434.000000	0.305646
433.000000	0.306129
432.000000	0.306464
431.000000	0.306888
430.000000	0.307412
429.000000	0.307800
428.000000	0.308332
427.000000	0.308864
426.000000	0.309409
425.000000	0.309972
424.000000	0.310275
423.000000	0.310928
422.000000	0.311478
421.000000	0.311946
420.000000	0.312492
419.000000	0.313155
418.000000	0.313658
417.000000	0.314375
416.000000	0.315008
415.000000	0.315618
414.000000	0.316306
413.000000	0.316850
412.000000	0.317531
411.000000	0.318270
410.000000	0.318957
409.000000	0.319697
408.000000	0.320361
407.000000	0.321145
406.000000	0.321743
405.000000	0.322506
404.000000	0.323222
403.000000	0.323999
402.000000	0.324647
401.000000	0.325450
400.000000	0.326206
399.000000	0.326832
398.000000	0.327789
397.000000	0.328582
396.000000	0.329328
395.000000	0.330241
394.000000	0.331019
393.000000	0.331752
392.000000	0.332377
391.000000	0.333057
390.000000	0.333766
389.000000	0.334524
388.000000	0.335314
387.000000	0.336115
386.000000	0.337002
385.000000	0.337604
384.000000	0.338243
383.000000	0.338489
382.000000	0.339130
381.000000	0.340163
380.000000	0.340971
379.000000	0.341537
378.000000	0.342159
377.000000	0.343266
376.000000	0.343659
375.000000	0.344394
374.000000	0.345358
373.000000	0.345930
372.000000	0.346615
371.000000	0.347332
370.000000	0.347903
369.000000	0.348730
368.000000	0.349057
367.000000	0.349772
366.000000	0.350296
365.000000	0.350768
364.000000	0.351136
363.000000	0.351759
362.000000	0.352213
361.000000	0.352431
360.000000	0.352922
359.000000	0.353269
358.000000	0.353888
357.000000	0.353985
356.000000	0.354399
355.000000	0.354480
354.000000	0.354978
353.000000	0.355414
352.000000	0.355628
351.000000	0.356069
350.000000	0.356372
