PE UV       SUBTECH     SPECTRUM    ASCII       PEDS        4.00        
   -1
GNRs_ctab_150ul_7W_30secs.Sample.asc
13/12/09
16:45:43.00
13/12/09
16:45:43.00
Administrator

350.000000
1
Lambda 25
1
PerkinElmer UV WinLab 6.0.3.0730 / Lambda25 1.27

480
2
1
0
0
Both on
1
1
1
6x Cell Changer
0
0
0
0
 
 
0
0
0
0
0
 
 
 
0
 
0
326
0
 
0
 
 
 
0
0
0
 
0
 
 
 
0
 
 
0
0
0
0
0
 
 
 
 
0
0


#HDR
-1
-1
#GR
nm
A
1.0
0.0
1100.000000
-1.000000
751
8
0.757301
0.017830
#DATA
1100.000000	0.017830
1099.000000	0.018160
1098.000000	0.018342
1097.000000	0.018701
1096.000000	0.017936
1095.000000	0.017897
1094.000000	0.018465
1093.000000	0.018924
1092.000000	0.018273
1091.000000	0.018649
1090.000000	0.018839
1089.000000	0.019051
1088.000000	0.018436
1087.000000	0.018771
1086.000000	0.018917
1085.000000	0.019119
1084.000000	0.018993
1083.000000	0.019135
1082.000000	0.018980
1081.000000	0.019489
1080.000000	0.019402
1079.000000	0.019586
1078.000000	0.019849
1077.000000	0.019992
1076.000000	0.019908
1075.000000	0.020220
1074.000000	0.020478
1073.000000	0.020402
1072.000000	0.020775
1071.000000	0.020558
1070.000000	0.020931
1069.000000	0.020948
1068.000000	0.020857
1067.000000	0.021306
1066.000000	0.021400
1065.000000	0.021498
1064.000000	0.021305
1063.000000	0.021988
1062.000000	0.022208
1061.000000	0.022188
1060.000000	0.022129
1059.000000	0.022571
1058.000000	0.022715
1057.000000	0.022647
1056.000000	0.022955
1055.000000	0.022840
1054.000000	0.023194
1053.000000	0.023504
1052.000000	0.023642
1051.000000	0.023826
1050.000000	0.024023
1049.000000	0.024179
1048.000000	0.024249
1047.000000	0.024515
1046.000000	0.024847
1045.000000	0.025121
1044.000000	0.025202
1043.000000	0.025427
1042.000000	0.025889
1041.000000	0.026016
1040.000000	0.026337
1039.000000	0.026338
1038.000000	0.026829
1037.000000	0.026963
1036.000000	0.027407
1035.000000	0.027588
1034.000000	0.027864
1033.000000	0.028018
1032.000000	0.028240
1031.000000	0.028586
1030.000000	0.028815
1029.000000	0.029099
1028.000000	0.029287
1027.000000	0.029595
1026.000000	0.029947
1025.000000	0.030216
1024.000000	0.030576
1023.000000	0.030840
1022.000000	0.031195
1021.000000	0.031600
1020.000000	0.031931
1019.000000	0.032230
1018.000000	0.032582
1017.000000	0.033069
1016.000000	0.033334
1015.000000	0.033796
1014.000000	0.034147
1013.000000	0.034658
1012.000000	0.034971
1011.000000	0.035519
1010.000000	0.035858
1009.000000	0.036298
1008.000000	0.036626
1007.000000	0.037173
1006.000000	0.037482
1005.000000	0.038027
1004.000000	0.038349
1003.000000	0.038837
1002.000000	0.039255
1001.000000	0.039666
1000.000000	0.040255
999.000000	0.040762
998.000000	0.041236
997.000000	0.041850
996.000000	0.042248
995.000000	0.042703
994.000000	0.043220
993.000000	0.043693
992.000000	0.044217
991.000000	0.044668
990.000000	0.045403
989.000000	0.046053
988.000000	0.046865
987.000000	0.047520
986.000000	0.048122
985.000000	0.048947
984.000000	0.049631
983.000000	0.050353
982.000000	0.051107
981.000000	0.051847
980.000000	0.052640
979.000000	0.053446
978.000000	0.054298
977.000000	0.055024
976.000000	0.055854
975.000000	0.056635
974.000000	0.057660
973.000000	0.058423
972.000000	0.059369
971.000000	0.060196
970.000000	0.061198
969.000000	0.062131
968.000000	0.063241
967.000000	0.064271
966.000000	0.065571
965.000000	0.066566
964.000000	0.067912
963.000000	0.068804
962.000000	0.070188
961.000000	0.071398
960.000000	0.072707
959.000000	0.073920
958.000000	0.075209
957.000000	0.076652
956.000000	0.078371
955.000000	0.079973
954.000000	0.081609
953.000000	0.083180
952.000000	0.084802
951.000000	0.086264
950.000000	0.088010
949.000000	0.089347
948.000000	0.091125
947.000000	0.092936
946.000000	0.094483
945.000000	0.096214
944.000000	0.097922
943.000000	0.099914
942.000000	0.101550
941.000000	0.103499
940.000000	0.105430
939.000000	0.107262
938.000000	0.109421
937.000000	0.111376
936.000000	0.113538
935.000000	0.115499
934.000000	0.117743
933.000000	0.119934
932.000000	0.122186
931.000000	0.124379
930.000000	0.126753
929.000000	0.129049
928.000000	0.131467
927.000000	0.134043
926.000000	0.136526
925.000000	0.139240
924.000000	0.141956
923.000000	0.144473
922.000000	0.147003
921.000000	0.149583
920.000000	0.152090
919.000000	0.154744
918.000000	0.157297
917.000000	0.159863
916.000000	0.162422
915.000000	0.164921
914.000000	0.167517
913.000000	0.170062
912.000000	0.172769
911.000000	0.175454
910.000000	0.178138
909.000000	0.180813
908.000000	0.183436
907.000000	0.186085
906.000000	0.188824
905.000000	0.191389
904.000000	0.194181
903.000000	0.196652
902.000000	0.199407
901.000000	0.201824
900.000000	0.204324
899.000000	0.206665
898.000000	0.209295
897.000000	0.211665
896.000000	0.214216
895.000000	0.216574
894.000000	0.218818
893.000000	0.220841
892.000000	0.222857
891.000000	0.224782
890.000000	0.226519
889.000000	0.228152
888.000000	0.229831
887.000000	0.231254
886.000000	0.232711
885.000000	0.234026
884.000000	0.235183
883.000000	0.236356
882.000000	0.237395
881.000000	0.238201
880.000000	0.239066
879.000000	0.239664
878.000000	0.240157
877.000000	0.240657
876.000000	0.241064
875.000000	0.241047
874.000000	0.241107
873.000000	0.241211
872.000000	0.241044
871.000000	0.240797
870.000000	0.240368
869.000000	0.239875
868.000000	0.239325
867.000000	0.238671
866.000000	0.237959
865.000000	0.236954
864.000000	0.236105
863.000000	0.235062
862.000000	0.234056
861.000000	0.232857
860.000000	0.231772
859.000000	0.230501
858.000000	0.229160
857.000000	0.227920
856.000000	0.226455
855.000000	0.225209
854.000000	0.223807
853.000000	0.222338
852.000000	0.221032
851.000000	0.219494
850.000000	0.218032
849.000000	0.216652
848.000000	0.214992
847.000000	0.213643
846.000000	0.212195
845.000000	0.210791
844.000000	0.209386
843.000000	0.208081
842.000000	0.206595
841.000000	0.205352
840.000000	0.203965
839.000000	0.202632
838.000000	0.201450
837.000000	0.200328
836.000000	0.199086
835.000000	0.198052
834.000000	0.197132
833.000000	0.196190
832.000000	0.195209
831.000000	0.194399
830.000000	0.193644
829.000000	0.192932
828.000000	0.192313
827.000000	0.191648
826.000000	0.191106
825.000000	0.190528
824.000000	0.190176
823.000000	0.189632
822.000000	0.189440
821.000000	0.189104
820.000000	0.188852
819.000000	0.188735
818.000000	0.188738
817.000000	0.188974
816.000000	0.188871
815.000000	0.188987
814.000000	0.189259
813.000000	0.189465
812.000000	0.189851
811.000000	0.190419
810.000000	0.190882
809.000000	0.191518
808.000000	0.192082
807.000000	0.192927
806.000000	0.193696
805.000000	0.194594
804.000000	0.195454
803.000000	0.196449
802.000000	0.197704
801.000000	0.198850
800.000000	0.200276
799.000000	0.201583
798.000000	0.203115
797.000000	0.204581
796.000000	0.206439
795.000000	0.208712
794.000000	0.210450
793.000000	0.212561
792.000000	0.214858
791.000000	0.216880
790.000000	0.219283
789.000000	0.221373
788.000000	0.223990
787.000000	0.226505
786.000000	0.229234
785.000000	0.232049
784.000000	0.234933
783.000000	0.237914
782.000000	0.241167
781.000000	0.244464
780.000000	0.248115
779.000000	0.251709
778.000000	0.255463
777.000000	0.259324
776.000000	0.263384
775.000000	0.267565
774.000000	0.271745
773.000000	0.276179
772.000000	0.280683
771.000000	0.285249
770.000000	0.290211
769.000000	0.295326
768.000000	0.300407
767.000000	0.306021
766.000000	0.311809
765.000000	0.317703
764.000000	0.324001
763.000000	0.329876
762.000000	0.335964
761.000000	0.341857
760.000000	0.347780
759.000000	0.353752
758.000000	0.359765
757.000000	0.365433
756.000000	0.371366
755.000000	0.376774
754.000000	0.382207
753.000000	0.387478
752.000000	0.392249
751.000000	0.397045
750.000000	0.401331
749.000000	0.405319
748.000000	0.408752
747.000000	0.411612
746.000000	0.414245
745.000000	0.416304
744.000000	0.417902
743.000000	0.419006
742.000000	0.419752
741.000000	0.419981
740.000000	0.419835
739.000000	0.419145
738.000000	0.418139
737.000000	0.416590
736.000000	0.414681
735.000000	0.412771
734.000000	0.410360
733.000000	0.407571
732.000000	0.404706
731.000000	0.401381
730.000000	0.398198
729.000000	0.394670
728.000000	0.390909
727.000000	0.387291
726.000000	0.383392
725.000000	0.379614
724.000000	0.375665
723.000000	0.371766
722.000000	0.367885
721.000000	0.363985
720.000000	0.360386
719.000000	0.356571
718.000000	0.353024
717.000000	0.349741
716.000000	0.346444
715.000000	0.343334
714.000000	0.340310
713.000000	0.337633
712.000000	0.334903
711.000000	0.332446
710.000000	0.329947
709.000000	0.327775
708.000000	0.325746
707.000000	0.323790
706.000000	0.322051
705.000000	0.320553
704.000000	0.319162
703.000000	0.317917
702.000000	0.316839
701.000000	0.315922
700.000000	0.315162
699.000000	0.314533
698.000000	0.314042
697.000000	0.313808
696.000000	0.313668
695.000000	0.313504
694.000000	0.313752
693.000000	0.313965
692.000000	0.314420
691.000000	0.314990
690.000000	0.315741
689.000000	0.316454
688.000000	0.317451
687.000000	0.318379
686.000000	0.319544
685.000000	0.320835
684.000000	0.322135
683.000000	0.323743
682.000000	0.325175
681.000000	0.326703
680.000000	0.328424
679.000000	0.330316
678.000000	0.332061
677.000000	0.334030
676.000000	0.335957
675.000000	0.337905
674.000000	0.340076
673.000000	0.342279
672.000000	0.344672
671.000000	0.347020
670.000000	0.349205
669.000000	0.351598
668.000000	0.353985
667.000000	0.356407
666.000000	0.358826
665.000000	0.361448
664.000000	0.364008
663.000000	0.366481
662.000000	0.369202
661.000000	0.371742
660.000000	0.374477
659.000000	0.377098
658.000000	0.379662
657.000000	0.382376
656.000000	0.385132
655.000000	0.387831
654.000000	0.390487
653.000000	0.393230
652.000000	0.395994
651.000000	0.398739
650.000000	0.401545
649.000000	0.404268
648.000000	0.406958
647.000000	0.409582
646.000000	0.412288
645.000000	0.415045
644.000000	0.417789
643.000000	0.420657
642.000000	0.423241
641.000000	0.426100
640.000000	0.428863
639.000000	0.431485
638.000000	0.434201
637.000000	0.436831
636.000000	0.439581
635.000000	0.442227
634.000000	0.444884
633.000000	0.447783
632.000000	0.450336
631.000000	0.452942
630.000000	0.455643
629.000000	0.458119
628.000000	0.460855
627.000000	0.463275
626.000000	0.465833
625.000000	0.468433
624.000000	0.470951
623.000000	0.473512
622.000000	0.476016
621.000000	0.478568
620.000000	0.480869
619.000000	0.483455
618.000000	0.485769
617.000000	0.488070
616.000000	0.490544
615.000000	0.492815
614.000000	0.495286
613.000000	0.497551
612.000000	0.499814
611.000000	0.502072
610.000000	0.504231
609.000000	0.506593
608.000000	0.508748
607.000000	0.511091
606.000000	0.513286
605.000000	0.515537
604.000000	0.517879
603.000000	0.519936
602.000000	0.522163
601.000000	0.524439
600.000000	0.526752
599.000000	0.528960
598.000000	0.531369
597.000000	0.533555
596.000000	0.535902
595.000000	0.538270
594.000000	0.540723
593.000000	0.543256
592.000000	0.545689
591.000000	0.548188
590.000000	0.550804
589.000000	0.553397
588.000000	0.556126
587.000000	0.558823
586.000000	0.561667
585.000000	0.564820
584.000000	0.567709
583.000000	0.570783
582.000000	0.573943
581.000000	0.577217
580.000000	0.580564
579.000000	0.583973
578.000000	0.587607
577.000000	0.591253
576.000000	0.595238
575.000000	0.599258
574.000000	0.603407
573.000000	0.607464
572.000000	0.611912
571.000000	0.616356
570.000000	0.620979
569.000000	0.625501
568.000000	0.630295
567.000000	0.634995
566.000000	0.639957
565.000000	0.644698
564.000000	0.649552
563.000000	0.654296
562.000000	0.659249
561.000000	0.664109
560.000000	0.668991
559.000000	0.673664
558.000000	0.678515
557.000000	0.683288
556.000000	0.687986
555.000000	0.692118
554.000000	0.696707
553.000000	0.700623
552.000000	0.704654
551.000000	0.708291
550.000000	0.711831
549.000000	0.715247
548.000000	0.718535
547.000000	0.721766
546.000000	0.724756
545.000000	0.727541
544.000000	0.730248
543.000000	0.733032
542.000000	0.735421
541.000000	0.737721
540.000000	0.739762
539.000000	0.741871
538.000000	0.743866
537.000000	0.745629
536.000000	0.747459
535.000000	0.749013
534.000000	0.750520
533.000000	0.751977
532.000000	0.753200
531.000000	0.754293
530.000000	0.755162
529.000000	0.756099
528.000000	0.756654
527.000000	0.757150
526.000000	0.757301
525.000000	0.756992
524.000000	0.756592
523.000000	0.755819
522.000000	0.754829
521.000000	0.753542
520.000000	0.751687
519.000000	0.749114
518.000000	0.746468
517.000000	0.743244
516.000000	0.739381
515.000000	0.734969
514.000000	0.730309
513.000000	0.725087
512.000000	0.719395
511.000000	0.713179
510.000000	0.706347
509.000000	0.699369
508.000000	0.691853
507.000000	0.684048
506.000000	0.676258
505.000000	0.667914
504.000000	0.659475
503.000000	0.650892
502.000000	0.642200
501.000000	0.633389
500.000000	0.624699
499.000000	0.615814
498.000000	0.607300
497.000000	0.598831
496.000000	0.590802
495.000000	0.582946
494.000000	0.575333
493.000000	0.568488
492.000000	0.561679
491.000000	0.555294
490.000000	0.548995
489.000000	0.543098
488.000000	0.537483
487.000000	0.532130
486.000000	0.527204
485.000000	0.522568
484.000000	0.518590
483.000000	0.514408
482.000000	0.510843
481.000000	0.507468
480.000000	0.504344
479.000000	0.501422
478.000000	0.498914
477.000000	0.496496
476.000000	0.494312
475.000000	0.492135
474.000000	0.490356
473.000000	0.488702
472.000000	0.487251
471.000000	0.485846
470.000000	0.484514
469.000000	0.483315
468.000000	0.482330
467.000000	0.481319
466.000000	0.480311
465.000000	0.479582
464.000000	0.478973
463.000000	0.478392
462.000000	0.477988
461.000000	0.477724
460.000000	0.477293
459.000000	0.476992
458.000000	0.476836
457.000000	0.476685
456.000000	0.476696
455.000000	0.476513
454.000000	0.476744
453.000000	0.476830
452.000000	0.476927
451.000000	0.477089
450.000000	0.477321
449.000000	0.477434
448.000000	0.477726
447.000000	0.478110
446.000000	0.478570
445.000000	0.479014
444.000000	0.479525
443.000000	0.479901
442.000000	0.480436
441.000000	0.480961
440.000000	0.481419
439.000000	0.482149
438.000000	0.482456
437.000000	0.483164
436.000000	0.483803
435.000000	0.484284
434.000000	0.485032
433.000000	0.485655
432.000000	0.486347
431.000000	0.487145
430.000000	0.487739
429.000000	0.488604
428.000000	0.489122
427.000000	0.489933
426.000000	0.490825
425.000000	0.491760
424.000000	0.492339
423.000000	0.493389
422.000000	0.493888
421.000000	0.494775
420.000000	0.495665
419.000000	0.496519
418.000000	0.497355
417.000000	0.498428
416.000000	0.499398
415.000000	0.500355
414.000000	0.501403
413.000000	0.502399
412.000000	0.503434
411.000000	0.504516
410.000000	0.505518
409.000000	0.506662
408.000000	0.507770
407.000000	0.508872
406.000000	0.509935
405.000000	0.511089
404.000000	0.512222
403.000000	0.513337
402.000000	0.514410
401.000000	0.515633
400.000000	0.516753
399.000000	0.517937
398.000000	0.519129
397.000000	0.520443
396.000000	0.521685
395.000000	0.522938
394.000000	0.524361
393.000000	0.525401
392.000000	0.526463
391.000000	0.527548
390.000000	0.528716
389.000000	0.529975
388.000000	0.531296
387.000000	0.532462
386.000000	0.533798
385.000000	0.534851
384.000000	0.536227
383.000000	0.536793
382.000000	0.537876
381.000000	0.539983
380.000000	0.540414
379.000000	0.541760
378.000000	0.542348
377.000000	0.543873
376.000000	0.544836
375.000000	0.546415
374.000000	0.546907
373.000000	0.548098
372.000000	0.549113
371.000000	0.549745
370.000000	0.551020
369.000000	0.551885
368.000000	0.552571
367.000000	0.553355
366.000000	0.554336
365.000000	0.555027
364.000000	0.555851
363.000000	0.556059
362.000000	0.556938
361.000000	0.557559
360.000000	0.558272
359.000000	0.558330
358.000000	0.559130
357.000000	0.559518
356.000000	0.559733
355.000000	0.559873
354.000000	0.560865
353.000000	0.561368
352.000000	0.561640
351.000000	0.561994
350.000000	0.562410
